t (s);roll (deg);cons (deg);TL (%);TR (%)
1.12918;-2.5399933;0.0;44.3;35.69
1.139168;-2.550003;0.0;38.89;41.1
1.149164;-2.550003;0.0;38.91;41.08
1.15914;-2.550003;0.0;38.91;41.08
1.169152;-2.550003;0.0;38.91;41.08
1.17914;-2.550003;0.0;38.9;41.09
1.189116;-2.550003;0.0;38.89;41.1
1.1991;-2.5599976;0.0;38.89;41.1
1.209092;-2.5800018;0.0;38.83;41.16
1.219092;-2.6100006;0.0;38.76;41.23
1.229076;-2.6600037;0.0;38.7;41.29
1.239056;-2.7400055;0.0;38.57;41.42
1.249056;-2.8399963;0.0;38.46;41.53
1.259048;-2.949997;0.0;38.35;41.64
1.269056;-3.0899963;0.0;38.2;41.79
1.279032;-3.25;0.0;38.08;41.91
1.289016;-3.4299927;0.0;37.93;42.06
1.299024;-3.619995;0.0;37.82;42.17
1.30902;-3.8300018;0.0;37.66;42.33
1.319012;-4.050003;0.0;37.54;42.45
1.328992;-4.279999;0.0;37.4;42.59
1.33898;-4.529999;0.0;37.26;42.73
1.348992;-4.7700043;0.0;37.14;42.85
1.35898;-5.029999;0.0;37.0;42.99
1.368976;-5.279999;0.0;36.91;43.08
1.378964;-5.5399933;0.0;36.77;43.22
1.388968;-5.7899933;0.0;36.66;43.33
1.398952;-6.0700073;0.0;36.5;43.49
1.408952;-6.3399963;0.0;36.37;43.62
1.418952;-6.6100006;0.0;36.28;43.71
1.428944;-6.8600006;0.0;36.22;43.77
1.438936;-7.1100006;0.0;36.14;43.85
1.448928;-7.350006;0.0;36.06;43.93
1.458936;-7.5700073;0.0;36.02;43.97
1.468916;-7.7899933;0.0;35.96;44.03
1.478908;-7.9799957;0.0;35.93;44.06
1.488896;-8.169998;0.0;35.89;44.1
1.498884;-8.339996;0.0;35.86;44.13
1.508884;-8.5;0.0;35.86;44.13
1.51928;-8.630005;0.0;35.88;44.11
1.52888;-8.75;0.0;35.86;44.13
1.538868;-8.860001;0.0;35.86;44.13
1.548848;-8.940002;0.0;35.93;44.06
1.558864;-9.0;0.0;35.96;44.03
1.56884;-9.020004;0.0;36.07;43.92
1.578844;-9.029999;0.0;36.1;43.89
1.58884;-9.029999;0.0;36.15;43.84
1.59884;-9.0099945;0.0;36.21;43.78
1.608824;-8.970001;0.0;36.31;43.68
1.61882;-8.910004;0.0;36.4;43.59
1.6288;-8.830002;0.0;36.51;43.48
1.638816;-8.720001;0.0;36.63;43.36
1.648808;-8.600006;0.0;36.74;43.25
1.65878;-8.449997;0.0;36.88;43.11
1.668768;-8.289993;0.0;37.0;42.99
1.678768;-8.100006;0.0;37.17;42.82
1.68876;-7.899994;0.0;37.31;42.68
1.69874;-7.6799927;0.0;37.44;42.55
1.708732;-7.4400024;0.0;37.62;42.37
1.718736;-7.1900024;0.0;37.78;42.21
1.728724;-6.919998;0.0;37.95;42.04
1.738708;-6.630005;0.0;38.12;41.87
1.748716;-6.3399963;0.0;38.27;41.72
1.758684;-6.0200043;0.0;38.49;41.5
1.76868;-5.6900024;0.0;38.67;41.32
1.778672;-5.350006;0.0;38.85;41.14
1.788664;-4.9900055;0.0;39.07;40.92
1.798656;-4.619995;0.0;39.26;40.73
1.808648;-4.2299957;0.0;39.47;40.52
1.818644;-3.850006;0.0;39.65;40.34
1.828632;-3.449997;0.0;39.84;40.15
1.838636;-3.050003;0.0;40.04;39.95
1.84864;-2.6399994;0.0;40.23;39.76
1.85862;-2.2200012;0.0;40.44;39.55
1.868624;-1.8099976;0.0;40.59;39.4
1.878616;-1.3999939;0.0;40.79;39.2
1.88862;-0.9799957;0.0;40.99;39.0
1.898612;-0.55999756;0.0;41.15;38.84
1.908988;-0.13999939;0.0;41.29;38.7
1.918604;0.2899933;0.0;41.59;38.4
1.928612;0.7100067;0.0;41.7;38.29
1.938592;1.1199951;0.0;41.87;38.12
1.948572;1.5299988;0.0;42.01;37.98
1.958564;1.9400024;0.0;42.19;37.8
1.968556;2.3399963;0.0;42.32;37.67
1.978536;2.7299957;0.0;42.46;37.53
1.988512;3.1100006;0.0;42.6;37.39
1.998524;3.4799957;0.0;42.71;37.28
2.008532;3.8399963;0.0;42.83;37.16
2.01852;4.1900024;0.0;42.96;37.03
2.0285;4.529999;0.0;43.09;36.9
2.038516;4.8600006;0.0;43.17;36.82
2.048504;5.1799927;0.0;43.28;36.71
2.058496;5.4799957;0.0;43.34;36.65
2.068476;5.779999;0.0;43.44;36.55
2.078468;6.050003;0.0;43.5;36.49
2.088476;6.3099976;0.0;43.54;36.45
2.098452;6.550003;0.0;43.6;36.39
2.108444;6.779999;0.0;43.64;36.35
2.118428;6.9799957;0.0;43.65;36.34
2.128436;7.1600037;0.0;43.67;36.32
2.138444;7.3200073;0.0;43.65;36.34
2.148424;7.4600067;0.0;43.64;36.35
2.15842;7.5700073;0.0;43.62;36.37
2.1684;7.669998;0.0;43.59;36.4
2.1784;7.75;0.0;43.59;36.4
2.188392;7.8099976;0.0;43.53;36.46
2.198384;7.8600006;0.0;43.49;36.5
2.208384;7.869995;0.0;43.41;36.58
2.218372;7.869995;0.0;43.34;36.65
2.228368;7.850006;0.0;43.27;36.72
2.23836;7.800003;0.0;43.17;36.82
2.248356;7.7299957;0.0;43.07;36.92
2.258368;7.6399994;0.0;42.96;37.03
2.268336;7.529999;0.0;42.85;37.14
2.278336;7.399994;0.0;42.72;37.27
2.28832;7.2599945;0.0;42.62;37.37
2.298312;7.0899963;0.0;42.47;37.52
2.308308;6.9100037;0.0;42.34;37.65
2.318284;6.7100067;0.0;42.19;37.8
2.328292;6.4900055;0.0;42.04;37.95
2.338272;6.2599945;0.0;41.87;38.12
2.348256;6.0;0.0;41.72;38.27
2.35826;5.7299957;0.0;41.53;38.46
2.368268;5.4400024;0.0;41.36;38.63
2.378252;5.1399994;0.0;41.2;38.79
2.38824;4.830002;0.0;40.99;39.0
2.398224;4.5;0.0;40.83;39.16
2.408208;4.1600037;0.0;40.62;39.37
2.418204;3.8099976;0.0;40.45;39.54
2.428196;3.4400024;0.0;40.24;39.75
2.438176;3.0700073;0.0;40.07;39.92
2.448176;2.6900024;0.0;39.87;40.12
2.458144;2.300003;0.0;39.68;40.31
2.468184;1.9100037;0.0;39.53;40.46
2.478172;1.5099945;0.0;39.31;40.68
2.488164;1.1000061;0.0;39.1;40.89
2.498156;0.69999695;0.0;38.94;41.05
2.508156;0.2899933;0.0;38.76;41.23
2.51814;-0.11999512;0.0;38.59;41.4
2.52814;-0.5200043;0.0;38.41;41.58
2.538148;-0.9299927;0.0;38.25;41.74
2.548132;-1.3300018;0.0;38.08;41.91
2.558104;-1.7299957;0.0;37.95;42.04
2.568104;-2.130005;0.0;37.76;42.23
2.578092;-2.5099945;0.0;37.66;42.33
2.58808;-2.880005;0.0;37.53;42.46
2.598072;-3.25;0.0;37.38;42.61
2.608052;-3.6100006;0.0;37.23;42.76
2.618072;-3.9700012;0.0;37.13;42.86
2.628064;-4.3200073;0.0;36.99;43.0
2.638044;-4.649994;0.0;36.89;43.1
2.648048;-4.970001;0.0;36.8;43.19
2.658052;-5.279999;0.0;36.71;43.28
2.668044;-5.580002;0.0;36.62;43.37
2.678008;-5.869995;0.0;36.52;43.47
2.688024;-6.1399994;0.0;36.48;43.51
2.698012;-6.3899994;0.0;36.45;43.54
2.708;-6.619995;0.0;36.4;43.59
2.71798;-6.830002;0.0;36.37;43.62
2.727996;-7.0200043;0.0;36.36;43.63
2.737996;-7.1900024;0.0;36.37;43.62
2.747972;-7.3399963;0.0;36.37;43.62
2.757972;-7.4600067;0.0;36.4;43.59
2.76796;-7.5599976;0.0;36.46;43.53
2.777952;-7.630005;0.0;36.49;43.5
2.787964;-7.6799927;0.0;36.54;43.45
2.797964;-7.7100067;0.0;36.6;43.39
2.807956;-7.7299957;0.0;36.65;43.34
2.817944;-7.7299957;0.0;36.68;43.31
2.827948;-7.699997;0.0;36.82;43.17
2.837944;-7.6600037;0.0;36.88;43.11
2.847916;-7.580002;0.0;37.01;42.98
2.857904;-7.4900055;0.0;37.12;42.87
2.867904;-7.369995;0.0;37.25;42.74
2.87788;-7.2299957;0.0;37.36;42.63
2.887876;-7.080002;0.0;37.5;42.49
2.897852;-6.8899994;0.0;37.66;42.33
2.90784;-6.6900024;0.0;37.82;42.17
2.917844;-6.470001;0.0;37.96;42.03
2.927848;-6.2299957;0.0;38.16;41.83
2.93782;-5.970001;0.0;38.31;41.68
2.947824;-5.6900024;0.0;38.51;41.48
2.957832;-5.3899994;0.0;38.67;41.32
2.967808;-5.0899963;0.0;38.85;41.14
2.97778;-4.7700043;0.0;39.02;40.97
2.987784;-4.4299927;0.0;39.25;40.74
2.997776;-4.080002;0.0;39.42;40.57
3.00816;-3.7200012;0.0;39.58;40.41
3.017756;-3.3399963;0.0;39.88;40.11
3.027752;-2.949997;0.0;40.03;39.96
3.037752;-2.5599976;0.0;40.23;39.76
3.047744;-2.149994;0.0;40.43;39.56
3.057736;-1.75;0.0;40.6;39.39
3.067748;-1.3300018;0.0;40.81;39.18
3.07774;-0.91000366;0.0;41.02;38.97
3.087756;-0.4900055;0.0;41.19;38.8
3.097736;-0.070007324;0.0;41.36;38.63
3.107724;0.3600006;0.0;41.6;38.39
3.117712;0.7899933;0.0;41.77;38.22
3.127712;1.2299957;0.0;41.98;38.01
3.137692;1.6600037;0.0;42.14;37.85
3.14768;2.0899963;0.0;42.33;37.66
3.157684;2.5200043;0.0;42.52;37.47
3.16768;2.9400024;0.0;42.66;37.33
3.177652;3.3600006;0.0;42.82;37.17
3.18764;3.7700043;0.0;42.97;37.02
3.197636;4.169998;0.0;43.11;36.88
3.20762;4.5599976;0.0;43.25;36.74
3.21762;4.9400024;0.0;43.38;36.61
3.227636;5.3099976;0.0;43.5;36.49
3.237612;5.6799927;0.0;43.64;36.35
3.247632;6.029999;0.0;43.73;36.26
3.257592;6.369995;0.0;43.85;36.14
3.267584;6.6900024;0.0;43.93;36.06
3.277572;7.0;0.0;44.03;35.96
3.287592;7.300003;0.0;44.08;35.91
3.297596;7.580002;0.0;44.16;35.83
3.307576;7.8399963;0.0;44.23;35.76
3.31756;8.080002;0.0;44.26;35.73
3.327552;8.309998;0.0;44.31;35.68
3.337544;8.529999;0.0;44.34;35.65
3.347528;8.720001;0.0;44.37;35.62
3.357524;8.899994;0.0;44.4;35.59
3.367528;9.059998;0.0;44.38;35.61
3.377528;9.199997;0.0;44.39;35.6
3.387516;9.320007;0.0;44.37;35.62
3.397504;9.419998;0.0;44.35;35.64
3.407476;9.5;0.0;44.31;35.68
3.417488;9.550003;0.0;44.27;35.72
3.42748;9.589996;0.0;44.22;35.77
3.437464;9.600006;0.0;44.13;35.86
3.44746;9.589996;0.0;44.05;35.94
3.45744;9.559998;0.0;43.97;36.02
3.467444;9.5;0.0;43.87;36.12
3.477416;9.429993;0.0;43.76;36.23
3.487408;9.320007;0.0;43.63;36.36
3.497424;9.210007;0.0;43.54;36.45
3.507428;9.059998;0.0;43.38;36.61
3.517392;8.899994;0.0;43.25;36.74
3.527372;8.729996;0.0;43.14;36.85
3.537392;8.529999;0.0;42.98;37.01
3.547384;8.309998;0.0;42.83;37.16
3.557364;8.089996;0.0;42.71;37.28
3.56736;7.850006;0.0;42.54;37.45
3.577368;7.5899963;0.0;42.38;37.61
3.587352;7.330002;0.0;42.23;37.76
3.597328;7.0399933;0.0;42.04;37.95
3.607332;6.7400055;0.0;41.89;38.1
3.61732;6.4400024;0.0;41.72;38.27
3.627324;6.119995;0.0;41.55;38.44
3.637304;5.7899933;0.0;41.35;38.64
3.64728;5.4600067;0.0;41.23;38.76
3.657292;5.1100006;0.0;41.02;38.97
3.667284;4.7400055;0.0;40.8;39.19
3.67726;4.369995;0.0;40.63;39.36
3.687268;3.9900055;0.0;40.41;39.58
3.69726;3.5899963;0.0;40.2;39.79
3.707628;3.1900024;0.0;40.06;39.93
3.717224;2.7799988;0.0;39.76;40.23
3.727224;2.369995;0.0;39.66;40.33
3.73722;1.9700012;0.0;39.48;40.51
3.74724;1.5599976;0.0;39.31;40.68
3.757224;1.1499939;0.0;39.13;40.86
3.767232;0.75;0.0;38.96;41.03
3.777228;0.3500061;0.0;38.82;41.17
3.78722;-0.05000305;0.0;38.63;41.36
3.797188;-0.44999695;0.0;38.49;41.5
3.807188;-0.83999634;0.0;38.32;41.67
3.817172;-1.2200012;0.0;38.2;41.79
3.827168;-1.6100006;0.0;38.03;41.96
3.83716;-1.9799957;0.0;37.91;42.08
3.847144;-2.3399963;0.0;37.79;42.2
3.85714;-2.699997;0.0;37.66;42.33
3.867128;-3.0399933;0.0;37.54;42.45
3.877116;-3.369995;0.0;37.46;42.53
3.887116;-3.699997;0.0;37.33;42.66
3.897104;-4.0;0.0;37.29;42.7
3.907108;-4.2899933;0.0;37.21;42.78
3.917096;-4.5599976;0.0;37.14;42.85
3.927104;-4.830002;0.0;37.06;42.93
3.9371;-5.0700073;0.0;37.02;42.97
3.947076;-5.300003;0.0;36.98;43.01
3.957072;-5.5099945;0.0;36.93;43.06
3.967064;-5.699997;0.0;36.92;43.07
3.977056;-5.880005;0.0;36.89;43.1
3.987048;-6.029999;0.0;36.92;43.07
3.997056;-6.1799927;0.0;36.89;43.1
4.007048;-6.2899933;0.0;36.94;43.05
4.01704;-6.3899994;0.0;36.93;43.06
4.027052;-6.4600067;0.0;37.01;42.98
4.03704;-6.5200043;0.0;37.03;42.96
4.047036;-6.5399933;0.0;37.11;42.88
4.05702;-6.550003;0.0;37.17;42.82
4.067012;-6.5399933;0.0;37.25;42.74
4.077008;-6.5;0.0;37.37;42.62
4.08698;-6.4400024;0.0;37.44;42.55
4.096964;-6.3600006;0.0;37.57;42.42
4.106956;-6.2599945;0.0;37.65;42.34
4.116952;-6.130005;0.0;37.81;42.18
4.126944;-5.9900055;0.0;37.91;42.08
4.136932;-5.830002;0.0;38.06;41.93
4.146928;-5.6399994;0.0;38.2;41.79
4.156928;-5.4400024;0.0;38.34;41.65
4.166904;-5.2299957;0.0;38.49;41.5
4.176888;-4.9900055;0.0;38.66;41.33
4.186884;-4.7400055;0.0;38.83;41.16
4.196868;-4.470001;0.0;38.98;41.01
4.206868;-4.1900024;0.0;39.15;40.84
4.216872;-3.899994;0.0;39.3;40.69
4.226864;-3.5800018;0.0;39.53;40.46
4.236844;-3.2599945;0.0;39.67;40.32
4.24686;-2.9299927;0.0;39.85;40.14
4.256844;-2.5899963;0.0;40.04;39.95
4.26684;-2.2400055;0.0;40.22;39.77
4.276816;-1.8800049;0.0;40.37;39.62
4.28682;-1.5099945;0.0;40.58;39.41
4.296816;-1.1499939;0.0;40.7;39.29
4.306832;-0.7799988;0.0;40.9;39.09
4.316824;-0.41000366;0.0;41.06;38.93
4.326828;-0.05000305;0.0;41.18;38.81
4.337192;0.32000732;0.0;41.33;38.66
4.346784;0.69000244;0.0;41.56;38.43
4.35678;1.0399933;0.0;41.64;38.35
4.36716;1.3999939;0.0;41.72;38.27
4.376756;1.7599945;0.0;42.0;37.99
4.386748;2.1100006;0.0;42.07;37.92
4.396756;2.4600067;0.0;42.2;37.79
4.406748;2.8099976;0.0;42.36;37.63
4.41674;3.1399994;0.0;42.46;37.53
4.42672;3.4799957;0.0;42.6;37.39
4.436728;3.800003;0.0;42.68;37.31
4.446724;4.1100006;0.0;42.81;37.18
4.456716;4.419998;0.0;42.9;37.09
4.4671;4.7100067;0.0;42.94;37.05
4.477084;5.0;0.0;43.08;36.91
4.4867;5.2700043;0.0;43.19;36.8
4.496684;5.5399933;0.0;43.26;36.73
4.506672;5.779999;0.0;43.28;36.71
4.516656;6.029999;0.0;43.39;36.6
4.526656;6.2599945;0.0;43.42;36.57
4.536668;6.470001;0.0;43.49;36.5
4.546648;6.669998;0.0;43.51;36.48
4.556632;6.8600006;0.0;43.55;36.44
4.566636;7.0399933;0.0;43.59;36.4
4.576636;7.199997;0.0;43.6;36.39
4.586616;7.350006;0.0;43.63;36.36
4.596612;7.4799957;0.0;43.62;36.37
4.606616;7.600006;0.0;43.64;36.35
4.616608;7.699997;0.0;43.61;36.38
4.626592;7.779999;0.0;43.59;36.4
4.636584;7.850006;0.0;43.57;36.42
4.646568;7.899994;0.0;43.54;36.45
4.65658;7.9299927;0.0;43.48;36.51
4.666568;7.949997;0.0;43.45;36.54
4.676544;7.949997;0.0;43.4;36.59
4.686536;7.9299927;0.0;43.31;36.68
4.696916;7.899994;0.0;43.26;36.73
4.706536;7.8600006;0.0;43.21;36.78
4.716516;7.7899933;0.0;43.09;36.9
4.726516;7.7100067;0.0;43.02;36.97
4.736508;7.6100006;0.0;42.92;37.07
4.746492;7.4900055;0.0;42.79;37.2
4.756492;7.350006;0.0;42.67;37.32
4.766476;7.2100067;0.0;42.6;37.39
4.776464;7.0399933;0.0;42.45;37.54
4.786848;6.869995;0.0;42.37;37.62
4.796452;6.669998;0.0;42.16;37.83
4.80644;6.4600067;0.0;42.04;37.95
4.81642;6.2400055;0.0;41.94;38.05
4.82642;6.0;0.0;41.75;38.24
4.836396;5.75;0.0;41.63;38.36
4.846404;5.5;0.0;41.49;38.5
4.856396;5.220001;0.0;41.29;38.7
4.866388;4.9400024;0.0;41.17;38.82
4.876372;4.6399994;0.0;40.99;39.0
4.886352;4.3399963;0.0;40.83;39.16
4.896356;4.0200043;0.0;40.65;39.34
4.906352;3.699997;0.0;40.52;39.47
4.91634;3.380005;0.0;40.34;39.65
4.92632;3.0399933;0.0;40.16;39.83
4.936328;2.6900024;0.0;39.99;40.0
4.946332;2.3399963;0.0;39.84;40.15
4.956316;1.9900055;0.0;39.66;40.33
4.9663;1.6399994;0.0;39.52;40.47
4.9763;1.2799988;0.0;39.35;40.64
4.98632;0.9299927;0.0;39.23;40.76
4.996288;0.58000183;0.0;39.08;40.91
5.006284;0.22999573;0.0;38.93;41.06
5.016284;-0.11999512;0.0;38.78;41.21
5.026292;-0.47000122;0.0;38.63;41.36
5.03626;-0.80000305;0.0;38.53;41.46
5.046252;-1.1399994;0.0;38.4;41.59
5.056256;-1.4700012;0.0;38.27;41.72
5.066232;-1.7899933;0.0;38.15;41.84
5.076224;-2.1100006;0.0;38.05;41.94
5.086212;-2.4100037;0.0;37.94;42.05
5.09622;-2.7100067;0.0;37.84;42.15
5.106216;-3.0200043;0.0;37.7;42.29
5.116596;-3.3099976;0.0;37.66;42.33
5.12618;-3.5800018;0.0;37.52;42.47
5.136192;-3.850006;0.0;37.44;42.55
5.146176;-4.119995;0.0;37.37;42.62
5.156156;-4.3600006;0.0;37.32;42.67
5.166172;-4.600006;0.0;37.25;42.74
5.176172;-4.8200073;0.0;37.2;42.79
5.186156;-5.0200043;0.0;37.18;42.81
5.196148;-5.2100067;0.0;37.14;42.85
5.20614;-5.3899994;0.0;37.09;42.9
5.216144;-5.550003;0.0;37.09;42.9
5.226148;-5.699997;0.0;37.07;42.92
5.236156;-5.8399963;0.0;37.06;42.93
5.246116;-5.9400024;0.0;37.11;42.88
5.25612;-6.029999;0.0;37.14;42.85
5.266112;-6.0899963;0.0;37.18;42.81
5.276116;-6.1399994;0.0;37.23;42.76
5.286108;-6.1600037;0.0;37.28;42.71
5.29608;-6.169998;0.0;37.33;42.66
5.306084;-6.149994;0.0;37.46;42.53
5.316076;-6.1100006;0.0;37.51;42.48
5.32606;-6.0399933;0.0;37.65;42.34
5.33604;-5.949997;0.0;37.75;42.24
5.34604;-5.8399963;0.0;37.87;42.12
5.356028;-5.7100067;0.0;38.01;41.98
5.366008;-5.5599976;0.0;38.11;41.88
5.376;-5.399994;0.0;38.25;41.74
5.386004;-5.2100067;0.0;38.4;41.59
5.396;-5.0099945;0.0;38.52;41.47
5.405976;-4.779999;0.0;38.71;41.28
5.415984;-4.5399933;0.0;38.88;41.11
5.425984;-4.279999;0.0;39.05;40.94
5.435976;-4.0;0.0;39.23;40.76
5.445972;-3.6900024;0.0;39.44;40.55
5.455952;-3.369995;0.0;39.64;40.35
5.465936;-3.0299988;0.0;39.83;40.16
5.475932;-2.6799927;0.0;40.05;39.94
5.485932;-2.3099976;0.0;40.24;39.75
5.495928;-1.9299927;0.0;40.45;39.54
5.505928;-1.5299988;0.0;40.64;39.35
5.516304;-1.1300049;0.0;40.82;39.17
5.52592;-0.7100067;0.0;41.13;38.86
5.535896;-0.2899933;0.0;41.3;38.69
5.545892;0.13999939;0.0;41.49;38.5
5.555896;0.58999634;0.0;41.73;38.26
5.565884;1.0299988;0.0;41.93;38.06
5.575868;1.4799957;0.0;42.13;37.86
5.585864;1.9299927;0.0;42.31;37.68
5.59624;2.380005;0.0;42.45;37.54
5.605848;2.8200073;0.0;42.75;37.24
5.615836;3.2700043;0.0;42.88;37.11
5.625844;3.699997;0.0;43.0;36.99
5.635828;4.119995;0.0;43.18;36.81
5.64584;4.5399933;0.0;43.31;36.68
5.655816;4.9400024;0.0;43.44;36.55
5.665804;5.330002;0.0;43.58;36.41
5.6758;5.7100067;0.0;43.69;36.3
5.685804;6.0700073;0.0;43.82;36.17
5.6958;6.419998;0.0;43.91;36.08
5.705784;6.7599945;0.0;44.0;35.99
5.715788;7.080002;0.0;44.09;35.9
5.725788;7.3899994;0.0;44.17;35.82
5.735772;7.669998;0.0;44.21;35.78
5.74574;7.949997;0.0;44.31;35.68
5.755732;8.210007;0.0;44.36;35.63
5.76572;8.449997;0.0;44.42;35.57
5.775716;8.679993;0.0;44.47;35.52
5.785704;8.899994;0.0;44.52;35.47
5.795704;9.100006;0.0;44.56;35.43
5.805688;9.279999;0.0;44.54;35.45
5.815708;9.440002;0.0;44.57;35.42
5.825676;9.589996;0.0;44.57;35.42
5.835676;9.720001;0.0;44.58;35.41
5.845664;9.809998;0.0;44.51;35.48
5.85566;9.899994;0.0;44.52;35.47
5.86566;9.960007;0.0;44.45;35.54
5.875668;10.0099945;0.0;44.42;35.57
5.885676;10.039993;0.0;44.37;35.62
5.89566;10.039993;0.0;44.27;35.72
5.905644;10.029999;0.0;44.24;35.75
5.915604;9.979996;0.0;44.09;35.9
5.925608;9.910004;0.0;44.0;35.99
5.935628;9.820007;0.0;43.9;36.09
5.945588;9.710007;0.0;43.76;36.23
5.955576;9.580002;0.0;43.65;36.34
5.965564;9.440002;0.0;43.54;36.45
5.975572;9.2599945;0.0;43.37;36.62
5.985572;9.080002;0.0;43.26;36.73
5.995544;8.860001;0.0;43.04;36.95
6.005548;8.619995;0.0;42.9;37.09
6.015524;8.369995;0.0;42.72;37.27
6.02552;8.100006;0.0;42.53;37.46
6.035512;7.800003;0.0;42.34;37.65
6.045504;7.4900055;0.0;42.16;37.83
6.055504;7.169998;0.0;41.97;38.02
6.0655;6.830002;0.0;41.8;38.19
6.07548;6.470001;0.0;41.56;38.43
6.085464;6.1100006;0.0;41.37;38.62
6.095472;5.7299957;0.0;41.21;38.78
6.105468;5.3399963;0.0;40.97;39.02
6.115452;4.9400024;0.0;40.74;39.25
6.125436;4.5200043;0.0;40.54;39.45
6.135444;4.1100006;0.0;40.37;39.62
6.145444;3.6799927;0.0;40.12;39.87
6.15542;3.25;0.0;39.96;40.03
6.165412;2.8200073;0.0;39.75;40.24
6.175396;2.380005;0.0;39.55;40.44
6.185412;1.9400024;0.0;39.36;40.63
6.195392;1.5;0.0;39.19;40.8
6.205396;1.0700073;0.0;39.01;40.98
6.215404;0.6300049;0.0;38.8;41.19
6.225384;0.19999695;0.0;38.63;41.36
6.23538;-0.22999573;0.0;38.47;41.52
6.245376;-0.66000366;0.0;38.27;41.72
6.255372;-1.0899963;0.0;38.1;41.89
6.265368;-1.5099945;0.0;37.95;42.04
6.275364;-1.9299927;0.0;37.8;42.19
6.285332;-2.3300018;0.0;37.65;42.34
6.295324;-2.7400055;0.0;37.46;42.53
6.305316;-3.130005;0.0;37.35;42.64
6.315308;-3.5099945;0.0;37.23;42.76
6.325288;-3.8899994;0.0;37.08;42.91
6.335296;-4.2400055;0.0;37.01;42.98
6.345284;-4.5899963;0.0;36.88;43.11
6.35528;-4.919998;0.0;36.81;43.18
6.365268;-5.2299957;0.0;36.71;43.28
6.37528;-5.5200043;0.0;36.67;43.32
6.385272;-5.7899933;0.0;36.63;43.36
6.395272;-6.0399933;0.0;36.58;43.41
6.405248;-6.2700043;0.0;36.55;43.44
6.415256;-6.4799957;0.0;36.53;43.46
6.42524;-6.6600037;0.0;36.55;43.44
6.435232;-6.8200073;0.0;36.57;43.42
6.445224;-6.949997;0.0;36.59;43.4
6.45522;-7.0700073;0.0;36.6;43.39
6.465212;-7.1600037;0.0;36.64;43.35
6.475236;-7.220001;0.0;36.71;43.28
6.48522;-7.2599945;0.0;36.76;43.23
6.495204;-7.279999;0.0;36.85;43.14
6.505172;-7.25;0.0;36.97;43.02
6.515192;-7.2100067;0.0;37.05;42.94
6.52518;-7.149994;0.0;37.16;42.83
6.535148;-7.0599976;0.0;37.27;42.72
6.545144;-6.949997;0.0;37.42;42.57
6.555132;-6.8099976;0.0;37.55;42.44
6.565136;-6.649994;0.0;37.68;42.31
6.575116;-6.470001;0.0;37.85;42.14
6.585108;-6.2599945;0.0;38.01;41.98
6.595128;-6.029999;0.0;38.19;41.8
6.605124;-5.7899933;0.0;38.35;41.64
6.615104;-5.5200043;0.0;38.54;41.45
6.625472;-5.2100067;0.0;38.74;41.25
6.63506;-4.9100037;0.0;38.97;41.02
6.645044;-4.580002;0.0;39.15;40.84
6.65504;-4.2400055;0.0;39.3;40.69
6.665036;-3.880005;0.0;39.54;40.45
6.67504;-3.5;0.0;39.78;40.21
6.685024;-3.1100006;0.0;39.95;40.04
6.695032;-2.699997;0.0;40.2;39.79
6.705028;-2.2899933;0.0;40.41;39.58
6.715032;-1.8600006;0.0;40.63;39.36
6.725036;-1.4100037;0.0;40.88;39.11
