t (s);roll (deg);TL (%);TR (%)
79875388;-1.6399994;70.0;10.0
79885352;-1.6499939;39.29;40.7
79895376;-1.6499939;39.31;40.68
79905368;-1.6499939;39.31;40.68
79915352;-1.6499939;39.31;40.68
79925320;-1.6499939;39.31;40.68
79935304;-1.6499939;39.31;40.68
79945320;-1.6499939;39.31;40.68
79955296;-1.6399994;39.35;40.64
79965288;-1.6399994;39.33;40.66
79975288;-1.6399994;39.31;40.68
79985272;-1.6399994;39.29;40.7
79995260;-1.6499939;39.31;40.68
80005256;-1.6499939;39.31;40.68
80015244;-1.6499939;39.31;40.68
80025228;-1.6600037;39.27;40.72
80035248;-1.6600037;39.29;40.7
80045220;-1.6799927;39.25;40.74
80055228;-1.6900024;39.26;40.73
80065200;-1.699997;39.24;40.75
80075212;-1.7200012;39.21;40.78
80085176;-1.7400055;39.22;40.77
80095196;-1.7599945;39.2;40.79
80105164;-1.7899933;39.16;40.83
80115184;-1.8200073;39.12;40.87
80125156;-1.8500061;39.14;40.85
80135152;-1.8800049;39.12;40.87
80145536;-1.9100037;39.11;40.88
80155156;-1.9400024;39.07;40.92
80165148;-1.9600067;39.1;40.89
80175124;-2.0099945;39.01;40.98
80185100;-2.0299988;39.07;40.92
80195112;-2.0700073;39.02;40.97
80205100;-2.1100006;38.99;41.0
80215092;-2.1399994;38.99;41.0
80225072;-2.1699982;38.98;41.01
80235468;-2.2100067;38.95;41.04
80245084;-2.25;38.94;41.05
80255060;-2.2799988;38.93;41.06
80265048;-2.3099976;38.93;41.06
80275036;-2.3399963;38.92;41.07
80285044;-2.369995;38.91;41.08
80295016;-2.4100037;38.86;41.13
80305012;-2.4400024;38.88;41.11
80315016;-2.4700012;38.87;41.12
80325020;-2.5;38.87;41.12
80334988;-2.5200043;38.88;41.11
80345000;-2.5399933;38.85;41.14
80354980;-2.5599976;38.88;41.11
80364984;-2.5800018;38.85;41.14
80374980;-2.600006;38.86;41.13
80384992;-2.6100006;38.85;41.14
80394972;-2.619995;38.87;41.12
80404968;-2.630005;38.88;41.11
80414952;-2.6399994;38.85;41.14
80424932;-2.6399994;38.9;41.09
80434928;-2.6399994;38.91;41.08
80444924;-2.6399994;38.89;41.1
80454908;-2.6399994;38.91;41.08
80464888;-2.630005;38.92;41.07
80474888;-2.619995;38.93;41.06
80484904;-2.600006;38.98;41.01
80494884;-2.5899963;38.97;41.02
80504888;-2.5700073;39.01;40.98
80514864;-2.5299988;39.06;40.93
80524872;-2.5;39.06;40.93
80534852;-2.4700012;39.09;40.9
80544836;-2.4199982;39.13;40.86
80554816;-2.380005;39.15;40.84
80564848;-2.3300018;39.2;40.79
80574824;-2.2799988;39.21;40.78
80584796;-2.2299957;39.25;40.74
80594808;-2.1699982;39.29;40.7
80604800;-2.1100006;39.31;40.68
80614784;-2.050003;39.34;40.65
80624760;-1.9700012;39.44;40.55
80634772;-1.9100037;39.41;40.58
80644764;-1.8399963;39.45;40.54
80654736;-1.7599945;39.52;40.47
80664724;-1.6799927;39.56;40.43
80674720;-1.6000061;39.59;40.4
80684704;-1.5200043;39.66;40.33
80694700;-1.4299927;39.69;40.3
80704708;-1.3300018;39.75;40.24
80714704;-1.25;39.77;40.22
80724704;-1.1600037;39.82;40.17
80734684;-1.050003;39.9;40.09
80744692;-0.9600067;39.92;40.07
80754668;-0.8600006;39.98;40.01
80764692;-0.7599945;40.01;39.98
80774672;-0.6499939;40.07;39.92
80784660;-0.55000305;40.13;39.86
80794648;-0.44000244;40.16;39.83
80804648;-0.33999634;40.2;39.79
80814644;-0.2400055;40.22;39.77
80824640;-0.13999939;40.27;39.72
80834632;-0.05000305;40.3;39.69
80844620;0.05000305;40.33;39.66
80854596;0.13999939;40.35;39.64
80864584;0.22999573;40.4;39.59
80874584;0.30999756;40.41;39.58
80884588;0.3999939;40.45;39.54
80894576;0.4900055;40.49;39.5
80904572;0.55999756;40.49;39.5
80914556;0.6399994;40.54;39.45
80924552;0.7200012;40.56;39.43
80934952;0.7899933;40.55;39.44
80944564;0.8600006;40.57;39.42
80954544;0.91000366;40.57;39.42
80964536;0.9700012;40.6;39.39
80974528;1.0299988;40.61;39.38
80984512;1.0899963;40.66;39.33
80994504;1.1399994;40.64;39.35
81004492;1.1900024;40.65;39.34
81014480;1.2299957;40.66;39.33
81024512;1.2700043;40.65;39.34
81034468;1.3099976;40.68;39.31
81044448;1.3399963;40.65;39.34
81054460;1.3699951;40.67;39.32
81064452;1.3999939;40.69;39.3
81074436;1.4199982;40.64;39.35
81084444;1.4400024;40.66;39.33
81094824;1.4400024;40.61;39.38
81104800;1.4600067;40.66;39.33
81114404;1.4600067;40.6;39.39
81124400;1.449997;40.59;39.4
81134388;1.449997;40.59;39.4
81144388;1.4400024;40.58;39.41
81154372;1.4299927;40.53;39.46
81164364;1.4100037;40.53;39.46
81174356;1.3999939;40.53;39.46
81184352;1.3699951;40.5;39.49
81194348;1.3500061;40.49;39.5
81204324;1.3300018;40.47;39.52
81214328;1.2899933;40.41;39.58
81224328;1.2599945;40.42;39.57
81234308;1.2299957;40.39;39.6
81244704;1.199997;40.4;39.59
81254288;1.1600037;40.35;39.64
81264284;1.1199951;40.35;39.64
81274272;1.0899963;40.35;39.64
81284276;1.050003;40.3;39.69
81294272;1.0099945;40.27;39.72
81304256;0.9700012;40.27;39.72
81314260;0.94000244;40.27;39.72
81324244;0.8999939;40.25;39.74
81334232;0.8500061;40.2;39.79
81344220;0.80999756;40.19;39.8
81354220;0.7700043;40.17;39.82
81364212;0.7299957;40.16;39.83
81374204;0.6799927;40.13;39.86
81384192;0.6300049;40.08;39.91
81394188;0.58000183;40.09;39.9
81404176;0.5299988;40.06;39.93
81414168;0.4900055;40.05;39.94
81424164;0.44000244;40.0;39.99
81434164;0.38000488;39.98;40.01
81444128;0.33000183;39.97;40.02
81454140;0.2899933;39.96;40.03
81464140;0.22999573;39.92;40.07
81474104;0.19000244;39.94;40.05
81484116;0.1499939;39.91;40.08
81494508;0.11000061;39.92;40.07
81504108;0.070007324;39.89;40.1
81514116;0.039993286;39.91;40.08
81524092;0.020004272;39.92;40.07
81534100;0.0;39.92;40.07
81544068;-0.020004272;39.94;40.05
81554088;-0.039993286;39.89;40.1
81564060;-0.05999756;39.92;40.07
81574052;-0.08000183;39.9;40.09
81584056;-0.08999634;39.91;40.08
81594436;-0.1000061;39.92;40.07
81604052;-0.11999512;39.91;40.08
81614004;-0.11999512;39.93;40.06
81624004;-0.13999939;39.89;40.1
81634008;-0.1499939;39.88;40.11
81644016;-0.16999817;39.88;40.11
81654016;-0.19000244;39.85;40.14
81663972;-0.19999695;39.86;40.13
81673960;-0.22000122;39.86;40.13
81683964;-0.22999573;39.87;40.12
81693960;-0.2400055;39.84;40.15
81703964;-0.25;39.87;40.12
81713948;-0.2599945;39.86;40.13
81723944;-0.2599945;39.88;40.11
81733920;-0.27000427;39.87;40.12
81743908;-0.27000427;39.87;40.12
81753928;-0.27000427;39.88;40.11
81763944;-0.27000427;39.9;40.09
81773908;-0.2599945;39.92;40.07
81783900;-0.25;39.91;40.08
81793916;-0.2400055;39.93;40.06
81803872;-0.22000122;39.97;40.02
81813864;-0.21000671;39.97;40.02
81823852;-0.17999268;40.02;39.97
81833852;-0.1499939;40.01;39.98
81844264;-0.11999512;40.06;39.93
81853844;-0.08000183;40.08;39.91
81863832;-0.039993286;40.11;39.88
81873824;0.009994507;40.16;39.83
81884220;0.039993286;40.14;39.85
81893808;0.1000061;40.22;39.77
81903772;0.1499939;40.24;39.75
81913776;0.21000671;40.26;39.73
81923776;0.27000427;40.32;39.67
81933772;0.33000183;40.35;39.64
81943744;0.41999817;40.47;39.52
81953752;0.5099945;40.49;39.5
81963740;0.58999634;40.52;39.47
81973748;0.69000244;40.61;39.38
81983728;0.7899933;40.66;39.33
81993716;0.8899994;40.72;39.27
82003696;0.9900055;40.74;39.25
82013692;1.1000061;40.82;39.17
82023696;1.2100067;40.86;39.13
82033672;1.3099976;40.88;39.11
82044068;1.4199982;40.94;39.05
82053684;1.5200043;40.97;39.02
82063684;1.6100006;40.99;39.0
82073652;1.7200012;41.06;38.93
82083628;1.8099976;41.05;38.94
82093656;1.8999939;41.09;38.9
82103640;1.9799957;41.09;38.9
82113628;2.0399933;41.06;38.93
82123628;2.0099945;40.72;39.27
82133588;1.8200073;40.14;39.85
82143616;1.4199982;39.27;40.72
82153580;0.80999756;38.3;41.69
82163592;0.02999878;37.39;42.6
82173584;-0.91000366;36.48;43.51
82183568;-1.9700012;35.64;44.35
82193524;-3.119995;34.85;45.14
82203544;-4.3200073;34.22;45.77
82213536;-5.5599976;33.55;46.44
82223536;-6.8200073;32.96;47.03
82233536;-8.059998;32.5;47.49
82243516;-9.289993;32.0;47.99
82253516;-10.470001;31.71;48.28
82263532;-11.619995;31.32;48.67
82273484;-12.720001;31.02;48.97
82283476;-13.779999;30.72;49.27
82293472;-14.820007;30.37;49.62
82303476;-15.839996;29.99;50.0
82313456;-16.820007;29.71;50.28
82323448;-17.779999;29.38;50.61
82333432;-18.710007;29.11;50.88
82343456;-19.559998;29.03;50.96
82353416;-20.339996;28.89;51.1
82363408;-21.080002;28.76;51.23
82373404;-21.75;28.71;51.28
82383400;-22.36;28.61;51.38
82393392;-22.919998;28.61;51.38
82403384;-23.449997;28.44;51.55
82413376;-23.940002;28.41;51.58
82423376;-24.36;28.43;51.56
82433348;-24.720001;28.49;51.5
82443340;-25.020004;28.57;51.42
82453352;-25.229996;28.78;51.21
82463340;-25.369995;28.97;51.02
82473316;-25.440002;29.16;50.83
82483308;-25.460007;29.32;50.67
82493312;-25.429993;29.52;50.47
82503296;-25.339996;29.73;50.26
82513288;-25.190002;29.98;50.01
82523280;-24.979996;30.3;49.69
82533268;-24.710007;30.62;49.37
82543260;-24.369995;30.98;49.01
82553264;-23.960007;31.36;48.63
82563244;-23.490005;31.77;48.22
82573256;-22.990005;32.11;47.88
82583632;-22.429993;32.45;47.54
82593232;-21.820007;33.0;46.99
82603216;-21.160004;33.39;46.6
82613228;-20.460007;33.81;46.18
82623240;-19.710007;34.29;45.7
82633212;-18.899994;34.82;45.17
82643196;-18.039993;35.36;44.63
82653180;-17.14;35.86;44.13
82663192;-16.210007;36.34;43.65
82673204;-15.229996;36.93;43.06
82683176;-14.220001;37.43;42.56
82693176;-13.190002;37.95;42.04
82703180;-12.119995;38.49;41.5
82713152;-11.039993;39.03;40.96
82723148;-9.919998;39.58;40.41
82733144;-8.789993;40.12;39.87
82743148;-7.630005;40.69;39.3
82753136;-6.449997;41.22;38.77
82763108;-5.2700043;41.77;38.22
82773096;-4.0700073;42.29;37.7
82783084;-2.880005;42.77;37.22
82793108;-1.6900024;43.26;36.73
82803100;-0.47999573;43.83;36.16
82813088;0.7299957;44.33;35.66
82823064;1.9400024;44.84;35.15
82833052;3.149994;45.36;34.63
82843040;4.350006;45.82;34.17
82853040;5.5599976;46.33;33.66
82863040;6.7400055;46.73;33.26
82873040;7.899994;47.17;32.82
82883052;9.029999;47.53;32.46
82893024;10.149994;47.97;32.02
82903016;11.2400055;48.33;31.66
82913012;12.330002;48.77;31.22
82922996;13.380005;49.05;30.94
82932996;14.389999;49.38;30.61
82942996;15.369995;49.67;30.32
82952972;16.330002;49.99;30.0
82962988;17.229996;50.17;29.82
82972968;18.080002;50.39;29.6
82982960;18.899994;50.61;29.38
82992952;19.679993;50.78;29.21
83002952;20.399994;50.9;29.09
83012936;21.070007;51.01;28.98
83022912;21.699997;51.17;28.82
83032924;22.279999;51.2;28.79
83042888;22.789993;51.21;28.78
83052896;23.259995;51.23;28.76
83062888;23.649994;51.17;28.82
83072876;23.990005;51.15;28.84
83082856;24.279999;51.06;28.93
83092848;24.479996;50.89;29.1
83102828;24.580002;50.54;29.45
83112828;24.509995;50.0;29.99
83122804;24.330002;49.52;30.47
83132808;24.059998;49.13;30.86
83142796;23.729996;48.77;31.22
83152808;23.330002;48.39;31.6
83162784;22.86;47.97;32.02
83172784;22.330002;47.54;32.45
83182764;21.740005;47.07;32.92
83192760;21.11;46.68;33.31
83202772;20.440002;46.27;33.72
83212772;19.720001;45.81;34.18
83222752;18.949997;45.32;34.67
83232744;18.119995;44.81;35.18
83242724;17.270004;44.33;35.66
83252732;16.36;43.8;36.19
83262732;15.389999;43.17;36.82
83272744;14.399994;42.68;37.31
83282704;13.360001;42.09;37.9
83292712;12.279999;41.54;38.45
83302696;11.190002;41.02;38.97
83312688;10.080002;40.49;39.5
83322688;8.949997;39.97;40.02
83332668;7.7899933;39.35;40.64
83342648;6.600006;38.77;41.22
83352628;5.3899994;38.2;41.79
83362632;4.169998;37.66;42.33
83372632;2.9299927;37.12;42.87
83382636;1.6799927;36.51;43.48
83392628;0.41999817;35.98;44.01
83402616;-0.83999634;35.45;44.54
83412616;-2.0899963;34.93;45.06
83422592;-3.350006;34.41;45.58
83432576;-4.5899963;33.95;46.04
83442568;-5.830002;33.44;46.55
83452568;-7.0599976;32.95;47.04
83462580;-8.279999;32.47;47.52
83472564;-9.4900055;32.0;47.99
83482560;-10.679993;31.58;48.41
83492568;-11.839996;31.21;48.78
83502544;-12.979996;30.78;49.21
83512532;-14.100006;30.39;49.6
83522508;-15.169998;30.08;49.91
83532504;-16.210007;29.78;50.21
83542504;-17.210007;29.5;50.49
83552488;-18.179993;29.18;50.81
83562476;-19.089996;29.01;50.98
83572484;-19.960007;28.79;51.2
83582468;-20.779999;28.58;51.41
83592448;-21.550003;28.45;51.54
83602440;-22.279999;28.3;51.69
83612448;-22.940002;28.22;51.77
83622448;-23.539993;28.21;51.78
83632444;-24.080002;28.15;51.84
83642408;-24.570007;28.12;51.87
83652396;-25.0;28.15;51.84
83662412;-25.369995;28.17;51.82
83672396;-25.690002;28.24;51.75
83682388;-25.949997;28.32;51.67
83692376;-26.14;28.46;51.53
83702380;-26.270004;28.62;51.37
83712360;-26.339996;28.79;51.2
83722376;-26.339996;29.02;50.97
83732372;-26.270004;29.29;50.7
83742348;-26.149994;29.51;50.48
83752336;-25.970001;29.79;50.2
83762312;-25.720001;30.11;49.88
83772328;-25.410004;30.44;49.55
83782308;-25.029999;30.83;49.16
83792304;-24.600006;31.17;48.82
83802280;-24.119995;31.56;48.43
83812280;-23.589996;31.95;48.04
83822280;-22.990005;32.41;47.58
83832264;-22.350006;32.83;47.16
83842280;-21.649994;33.29;46.7
83852260;-20.899994;33.79;46.2
83862248;-20.100006;34.3;45.69
83872260;-19.240005;34.82;45.17
83882236;-18.350006;35.34;44.65
83892248;-17.419998;35.82;44.17
83902236;-16.440002;36.43;43.56
83912236;-15.429993;36.93;43.06
83922216;-14.369995;37.55;42.44
83932204;-13.300003;38.02;41.97
83942596;-12.199997;38.45;41.54
83952188;-11.070007;39.32;40.67
83962192;-9.910004;39.72;40.27
83972188;-8.720001;40.34;39.65
83982196;-7.5200043;40.85;39.14
83992172;-6.2899933;41.47;38.52
84002140;-5.0599976;42.02;37.97
84012132;-3.8300018;42.49;37.5
84022132;-2.5899963;43.05;36.94
84032144;-1.3399963;43.6;36.39
84042144;-0.08999634;44.14;35.85
84052112;1.1499939;44.62;35.37
84062092;2.399994;45.16;34.83
84072092;3.6399994;45.65;34.34
84082080;4.869995;46.14;33.85
84092068;6.0899963;46.6;33.39
84102072;7.2899933;47.05;32.94
84112068;8.479996;47.48;32.51
84122068;9.649994;47.94;32.05
84132064;10.820007;48.38;31.61
84142048;11.929993;48.68;31.31
84152032;13.029999;49.12;30.87
84162040;14.110001;49.45;30.54
84172024;15.149994;49.77;30.22
84182036;16.14;50.03;29.96
84192028;17.100006;50.32;29.67
84201992;18.029999;50.62;29.37
84212400;18.910004;50.71;29.28
84221992;19.740005;51.1;28.89
84231976;20.539993;51.22;28.77
84241972;21.300003;51.41;28.58
84251968;22.009995;51.53;28.46
84261940;22.649994;51.59;28.4
84271960;23.259995;51.71;28.28
84281940;23.800003;51.72;28.27
84291924;24.279999;51.72;28.27
84301912;24.64;51.47;28.52
84311896;24.710007;50.53;29.46
84321880;24.449997;49.32;30.67
84331872;24.080002;48.77;31.22
84341860;23.649994;48.42;31.57
84351856;23.160004;48.02;31.97
84361848;22.589996;47.53;32.46
84371848;21.949997;47.0;32.99
84381856;21.229996;46.45;33.54
84391828;20.479996;46.01;33.98
84401824;19.679993;45.53;34.46
84411828;18.850006;45.1;34.89
84421812;18.009995;44.7;35.29
84431804;17.149994;44.27;35.72
84441804;16.240005;43.73;36.26
84451812;15.300003;43.24;36.75
84461792;14.289993;42.59;37.4
84471772;13.2400055;42.01;37.98
84481768;12.160004;41.45;38.54
84492160;11.050003;41.03;38.96
84501772;9.919998;40.23;39.76
84511760;8.800003;39.92;40.07
84521744;7.6600037;39.39;40.6
84531752;6.5099945;38.87;41.12
84541720;5.350006;38.34;41.65
84551704;4.169998;37.79;42.2
84561704;2.9400024;37.14;42.85
84571704;1.699997;36.58;43.41
84581708;0.44999695;36.02;43.97
84591704;-0.7799988;35.56;44.43
84601700;-2.0;35.08;44.91
84611664;-3.2200012;34.58;45.41
84621668;-4.419998;34.14;45.85
84631660;-5.6100006;33.69;46.3
84641652;-6.800003;33.21;46.78
84651648;-7.9799957;32.74;47.25
84661640;-9.139999;32.3;47.69
84671620;-10.279999;31.92;48.07
84681624;-11.380005;31.61;48.38
84691616;-12.440002;31.25;48.74
84701616;-13.4900055;30.89;49.1
84711600;-14.4900055;30.61;49.38
84721588;-15.449997;30.37;49.62
84731596;-16.39;30.04;49.95
84741576;-17.309998;29.72;50.27
84751552;-18.169998;29.53;50.46
84761556;-19.0;29.33;50.66
84771544;-19.789993;29.11;50.88
84781540;-20.539993;28.96;51.03
84791528;-21.229996;28.83;51.16
84801516;-21.880005;28.72;51.27
84811920;-22.470001;28.74;51.25
84821504;-23.0;28.57;51.42
84831480;-23.479996;28.6;51.39
84841468;-23.910004;28.6;51.39
84851472;-24.289993;28.59;51.4
84861476;-24.61;28.68;51.31
84871456;-24.880005;28.75;51.24
84881464;-25.070007;28.9;51.09
84891456;-25.190002;29.1;50.89
84901452;-25.259995;29.25;50.74
84911456;-25.270004;29.43;50.56
84921452;-25.220001;29.66;50.33
84931436;-25.119995;29.87;50.12
84941424;-24.949997;30.16;49.83
84951408;-24.720001;30.46;49.53
84961404;-24.440002;30.75;49.24
84971396;-24.100006;31.1;48.89
84981396;-23.710007;31.43;48.56
84991376;-23.259995;31.8;48.19
85001356;-22.759995;32.2;47.79
85011344;-22.210007;32.58;47.41
85021340;-21.61;32.99;47.0
85031364;-20.949997;33.44;46.55
85041328;-20.270004;33.83;46.16
85051348;-19.539993;34.27;45.72
85061328;-18.759995;34.8;45.19
85071328;-17.949997;35.24;44.75
85081332;-17.089996;35.72;44.27
85091316;-16.210007;36.19;43.8
85101308;-15.289993;36.69;43.3
85111692;-14.339996;37.06;42.93
85121292;-13.360001;37.84;42.15
85131276;-12.350006;38.23;41.76
85141260;-11.309998;38.75;41.24
85151260;-10.25;39.27;40.72
85161256;-9.169998;39.78;40.21
85171260;-8.050003;40.39;39.6
85181628;-6.9100037;40.75;39.24
85191240;-5.779999;41.53;38.46
85201212;-4.619995;41.95;38.04
85211192;-3.449997;42.46;37.53
85221212;-2.2799988;42.93;37.06
85231212;-1.1199951;43.42;36.57
85241216;0.05999756;43.95;36.04
85251184;1.2400055;44.44;35.55
85261172;2.399994;44.88;35.11
85271548;3.5599976;45.21;34.78
85281152;4.720001;46.0;33.99
85291140;5.869995;46.28;33.71
85301136;7.0;46.67;33.32
85311536;8.119995;46.97;33.02
85321140;9.229996;47.68;32.31
85331136;10.309998;47.9;32.09
85341120;11.360001;48.24;31.75
85351104;12.399994;48.65;31.34
85361096;13.410004;48.96;31.03
85371108;14.399994;49.27;30.72
85381084;15.360001;49.6;30.39
85391080;16.259995;49.79;30.2
85401080;17.14;50.08;29.91
85411084;17.990005;50.33;29.66
85421072;18.800003;50.51;29.48
85431064;19.550003;50.67;29.32
85441048;20.270004;50.84;29.15
85451032;20.949997;50.99;29.0
85461020;21.559998;51.03;28.96
85471016;22.14;51.15;28.84
85481012;22.669998;51.21;28.78
85491004;23.130005;51.18;28.81
85500988;23.559998;51.24;28.75
85510984;23.919998;51.16;28.83
85520996;24.220001;51.07;28.92
85530952;24.440002;50.92;29.07
85540952;24.520004;50.49;29.5
85550940;24.440002;49.89;30.1
85560924;24.229996;49.39;30.6
85570916;23.929993;48.99;31.0
85580908;23.570007;48.62;31.37
85590892;23.149994;48.24;31.75
85600892;22.669998;47.82;32.17
85610908;22.130005;47.43;32.56
85620872;21.529999;46.98;33.01
85630892;20.899994;46.58;33.41
85640876;20.220001;46.14;33.85
85651268;19.509995;45.86;34.13
85660856;18.75;45.16;34.83
85670844;17.949997;44.79;35.2
85680848;17.11;44.32;35.67
85690832;16.210007;43.76;36.23
85700840;15.270004;43.23;36.76
85710832;14.309998;42.74;37.25
85720812;13.300003;42.17;37.82
85730812;12.2599945;41.65;38.34
85740788;11.210007;41.16;38.83
85750804;10.130005;40.62;39.37
85760788;9.020004;40.06;39.93
85770784;7.9100037;39.57;40.42
85780764;6.7599945;38.98;41.01
85790752;5.5899963;38.41;41.58
85800748;4.399994;37.88;42.11
85810744;3.199997;37.34;42.65
85820728;2.0;36.79;43.2
85830736;0.7700043;36.25;43.74
85840720;-0.44000244;35.75;44.24
85850716;-1.6600037;35.23;44.76
85860696;-2.880005;34.73;45.26
85870684;-4.100006;34.21;45.78
85880704;-5.3200073;33.75;46.24
85890676;-6.5200043;33.25;46.74
85900684;-7.7100067;32.81;47.18
85910664;-8.899994;32.32;47.67
85920672;-10.070007;31.89;48.1
85930652;-11.229996;31.46;48.53
85940656;-12.350006;31.13;48.86
85950636;-13.440002;30.75;49.24
85960636;-14.5099945;30.37;49.62
85970616;-15.559998;30.03;49.96
85980612;-16.550003;29.77;50.22
85990596;-17.520004;29.46;50.53
86000592;-18.460007;29.19;50.8
86010576;-19.339996;29.0;50.99
86020576;-20.179993;28.79;51.2
86030564;-20.940002;28.73;51.26
86040552;-21.660004;28.56;51.43
86050548;-22.339996;28.44;51.55
86060548;-22.979996;28.29;51.7
86070524;-23.539993;28.29;51.7
